#Spannung[V]    #Strom[mA]
0               0.000
10              0.026
20              0.060
30              0.101
40              0.143
50              0.184
60              0.219
70              0.244
80              0.257
90              0.274
100             0.283
120             0.294
140             0.300
180             0.308
240             0.316
250             0.318