#Spannung[V]    #Strom[mA]
0               0.000
5               0.007
10              0.019
15              0.031
20              0.043
25              0.056
30              0.070
35              0.082
40              0.092
45              0.100
50              0.107
55              0.111
60              0.115
70              0.118
80              0.117
90              0.122
100             0.125
120             0.132
150             0.131