#Spannung[V]    #Strom[mA]
0               0.000
10              0.030
20              0.073
30              0.126
40              0.181
50              0.238
60              0.300
70              0.354
80              0.409
90              0.464
100             0.508
120             0.572
140             0.606
160             0.627
180             0.639
200             0.648
220             0.655
240             0.661
250             0.664